1136.9,-0.11856
1137.9,-0.12025
1138.8,-0.12223
1139.8,-0.12486
1140.7,-0.12703
1141.7,-0.12786
1142.7,-0.1291
1143.6,-0.13183
1144.6,-0.1342
1145.6,-0.1352
1146.5,-0.13716
1147.5,-0.14061
1148.5,-0.14337
1149.4,-0.14426
1150.4,-0.14469
1151.4,-0.1465
1152.3,-0.14993
1153.3,-0.15271
1154.2,-0.15593
1155.2,-0.15855
1156.2,-0.16189
1157.1,-0.16512
1158.1,-0.1668
1159.1,-0.17046
1160,-0.17505
1161,-0.17824
1162,-0.1828
1162.9,-0.18857
1163.9,-0.19534
1164.9,-0.20107
1165.8,-0.20797
1166.8,-0.21793
1167.7,-0.22153
1168.7,-0.22809
1169.7,-0.23769
1170.6,-0.24362
1171.6,-0.25142
1172.6,-0.25393
1173.5,-0.26222
1174.5,-0.28342
1175.5,-0.29471
1176.4,-0.3007
1177.4,-0.31937
1178.4,-0.33678
1179.3,-0.34932
1180.3,-0.36378
1181.2,-0.37406
1182.2,-0.40741
1183.2,-0.42741
1184.1,-0.4523
1185.1,-0.51103
1186.1,-0.52614
1187,-0.46753
1188,-0.39329
1189,-0.37881
1189.9,-0.50711
1190.9,-0.59552
1191.9,-0.54866
1192.8,-0.45013
1193.8,-0.51814
1194.7,-0.56752
1195.7,-0.46521
1196.7,-0.51325
1197.6,-0.55992
1198.6,-0.45426
1199.6,-0.44959
1200.5,-0.56964
1201.5,-0.55675
1202.5,-0.57256
1203.4,-0.48796
1204.4,-0.40141
1205.4,-0.49884
1206.3,-0.85683
1207.3,-0.84882
1208.2,-0.62636
1209.2,-0.51555
1210.2,-0.4774
1211.1,-0.54003
1212.1,-0.45215
1213.1,-0.43961
1214,-0.54816
1215,-0.42768
1216,-0.37425
1216.9,-0.38078
1217.9,-0.35112
1218.9,-0.36836
1219.8,-0.42232
1220.8,-0.42488
1221.7,-0.46463
1222.7,-0.45536
1223.7,-0.48231
1224.6,-0.48718
1225.6,-0.46593
1226.6,-0.59081
1227.5,-0.73833
1228.5,-0.5748
1229.5,-0.46481
1230.4,-0.39191
1231.4,-0.34635
1232.4,-0.3852
1233.3,-0.36803
1234.3,-0.3654
1235.2,-0.37674
1236.2,-0.38744
1237.2,-0.38216
1238.1,-0.37045
1239.1,-0.35924
1240.1,-0.35036
1241,-0.31307
1242,-0.29046
1243,-0.28829
1243.9,-0.2736
1244.9,-0.25146
1245.9,-0.23236
1246.8,-0.21777
1247.8,-0.203
1248.7,-0.18599
1249.7,-0.17277
1250.7,-0.1608
1251.6,-0.14894
1252.6,-0.13474
1253.6,-0.11961
1254.5,-0.10678
1255.5,-0.094684
1256.5,-0.08359
1257.4,-0.07301
1258.4,-0.062814
1259.4,-0.053296
1260.3,-0.04452
1261.3,-0.035672
1262.2,-0.027335
1263.2,-0.019612
1264.2,-0.013998
1265.1,-0.0089021
1266.1,-0.0034836
1267.1,0.0012065
1268,0.0049664
1269,0.0078846
1270,0.010589
1270.9,0.01247
1271.9,0.013661
1272.9,0.01447
1273.8,0.015062
1274.8,0.015743
1275.7,0.015924
1276.7,0.015823
1277.7,0.015672
1278.6,0.015156
1279.6,0.014257
1280.6,0.013237
1281.5,0.01193
1282.5,0.010374
1283.5,0.0086991
1284.4,0.0067774
1285.4,0.0053529
1286.4,0.0040849
1287.3,0.003079
1288.3,0.0025358
1289.2,0.0022987
1290.2,0.0025197
1291.2,0.0026388
1292.1,0.0028628
1293.1,0.0035589
1294.1,0.0045424
1295,0.0057517
1296,0.0072366
1297,0.0090227
1297.9,0.010856
1298.9,0.013016
1299.9,0.015076
1300.8,0.016921
1301.8,0.019194
1302.7,0.021663
1303.7,0.023869
1304.7,0.025972
1305.6,0.028103
1306.6,0.030074
1307.6,0.032093
1308.5,0.034311
1309.5,0.036285
1310.5,0.038227
1311.4,0.040398
1312.4,0.042339
1313.4,0.04413
1314.3,0.04599
1315.3,0.04789
1316.2,0.049607
1317.2,0.051164
1318.2,0.052603
1319.1,0.0537
1320.1,0.054632
1321.1,0.055787
1322,0.057452
1323,0.059641
1324,0.062623
1324.9,0.066227
1325.9,0.070092
1326.9,0.074438
1327.8,0.079233
1328.8,0.084
1329.7,0.088683
1330.7,0.093749
1331.7,0.098814
1332.6,0.10366
1333.6,0.10854
1334.6,0.11308
1335.5,0.11692
1336.5,0.12024
1337.5,0.1228
1338.4,0.12421
1339.4,0.12466
1340.4,0.12469
1341.3,0.12399
1342.3,0.12284
1343.2,0.12177
1344.2,0.1207
1345.2,0.1196
1346.1,0.11886
1347.1,0.11832
1348.1,0.11774
1349,0.11743
1350,0.11725
1351,0.11708
1351.9,0.11703
1352.9,0.11705
1353.8,0.11692
1354.8,0.11666
1355.8,0.11639
1356.7,0.11591
1357.7,0.11538
1358.7,0.11476
1359.6,0.11387
1360.6,0.113
1361.6,0.11215
1362.5,0.11109
1363.5,0.11002
1364.5,0.10888
1365.4,0.1076
1366.4,0.10618
1367.3,0.10469
1368.3,0.1032
1369.3,0.10174
1370.2,0.10053
1371.2,0.10012
1372.2,0.1005
1373.1,0.10141
1374.1,0.10209
1375.1,0.10181
1376,0.10069
1377,0.098979
1378,0.096276
1378.9,0.09241
1379.9,0.088085
1380.8,0.084501
1381.8,0.082374
1382.8,0.081474
1383.7,0.081618
1384.7,0.082615
1385.7,0.084256
1386.6,0.086685
1387.6,0.089913
1388.6,0.093899
1389.5,0.098733
1390.5,0.10477
1391.5,0.1117
1392.4,0.119
1393.4,0.12621
1394.3,0.13262
1395.3,0.13762
1396.3,0.14116
1397.2,0.14328
1398.2,0.14399
1399.2,0.14413
1400.1,0.14462
1401.1,0.14606
1402.1,0.14873
1403,0.15182
1404,0.15494
1405,0.15808
1405.9,0.16102
1406.9,0.16372
1407.8,0.1664
1408.8,0.16902
1409.8,0.17136
1410.7,0.17339
1411.7,0.17508
1412.7,0.17611
1413.6,0.17633
1414.6,0.17586
1415.6,0.17473
1416.5,0.17298
1417.5,0.17073
1418.5,0.16822
1419.4,0.16567
1420.4,0.16346
1421.3,0.16152
1422.3,0.1601
1423.3,0.15952
1424.2,0.16015
1425.2,0.1617
1426.2,0.16423
1427.1,0.1679
1428.1,0.17284
1429.1,0.1787
1430,0.1855
1431,0.19339
1432,0.20205
1432.9,0.21116
1433.9,0.22093
1434.8,0.23121
1435.8,0.24165
1436.8,0.25201
1437.7,0.26196
1438.7,0.27112
1439.7,0.27896
1440.6,0.28472
1441.6,0.28827
1442.6,0.28987
1443.5,0.29038
1444.5,0.29002
1445.5,0.28964
1446.4,0.28995
1447.4,0.29088
1448.3,0.29259
1449.3,0.29545
1450.3,0.29943
1451.2,0.30431
1452.2,0.31014
1453.2,0.31712
1454.1,0.32495
1455.1,0.33355
1456.1,0.34285
1457,0.35231
1458,0.36114
1459,0.36943
1459.9,0.3772
1460.9,0.3848
1461.8,0.39226
1462.8,0.3994
1463.8,0.40621
1464.7,0.41268
1465.7,0.41857
1466.7,0.42368
1467.6,0.42838
1468.6,0.43344
1469.6,0.43758
1470.5,0.43996
1471.5,0.44038
1472.5,0.43846
1473.4,0.43419
1474.4,0.42734
1475.3,0.41798
1476.3,0.40624
1477.3,0.39279
1478.2,0.37812
1479.2,0.3622
1480.2,0.34532
1481.1,0.32815
1482.1,0.31023
1483.1,0.29182
1484,0.27347
1485,0.25541
1486,0.23766
1486.9,0.22031
1487.9,0.20359
1488.8,0.18766
1489.8,0.1726
1490.8,0.15844
1491.7,0.14544
1492.7,0.13346
1493.7,0.12223
1494.6,0.1118
1495.6,0.10249
1496.6,0.094147
1497.5,0.086319
1498.5,0.079166
1499.5,0.072649
1500.4,0.066652
1501.4,0.061242
1502.3,0.056387
1503.3,0.051893
1504.3,0.047658
1505.2,0.043685
1506.2,0.0402
1507.2,0.037032
1508.1,0.033997
1509.1,0.031202
1510.1,0.028593
1511,0.02622
1512,0.024101
1513,0.022013
1513.9,0.019955
1514.9,0.018207
1515.8,0.016454
1516.8,0.014747
1517.8,0.013172
1518.7,0.011829
1519.7,0.01061
1520.7,0.0093379
1521.6,0.008053
1522.6,0.0070206
1523.6,0.0061553
1524.5,0.0052519
1525.5,0.0045696
1526.5,0.0038227
1527.4,0.0031381
1528.4,0.0026029
1529.3,0.0020313
1530.3,0.0015403
1531.3,0.0011987
1532.2,0.00078654
1533.2,0.00038908
1534.2,0.00014449
1535.1,1.2316e-05
1536.1,-7.8475e-06
1537.1,1.02e-05
1538,4.4008e-05
1539,0.00014708
1540,0.00043458
1540.9,0.00079981
1541.9,0.001248
1542.8,0.0018691
1543.8,0.0023855
1544.8,0.002972
1545.7,0.0038512
1546.7,0.0050461
1547.7,0.0062721
1548.6,0.0073024
1549.6,0.0085122
1550.6,0.010332
1551.5,0.012382
1552.5,0.014426
1553.5,0.016495
1554.4,0.018846
1555.4,0.021335
1556.3,0.024124
1557.3,0.027238
1558.3,0.030316
1559.2,0.033765
1560.2,0.037678
1561.2,0.041521
1562.1,0.045446
1563.1,0.049775
1564.1,0.054414
1565,0.059452
1566,0.064688
1567,0.070323
1567.9,0.076158
1568.9,0.082353
1569.8,0.088806
1570.8,0.09546
1571.8,0.10235
1572.7,0.1091
1573.7,0.11561
1574.7,0.12195
1575.6,0.12809
1576.6,0.13383
1577.6,0.13895
1578.5,0.14355
1579.5,0.14749
1580.5,0.1507
1581.4,0.15299
1582.4,0.15446
1583.3,0.15511
1584.3,0.15503
1585.3,0.15436
1586.2,0.15315
1587.2,0.15173
1588.2,0.15018
1589.1,0.14829
1590.1,0.14642
1591.1,0.14499
1592,0.14382
1593,0.14272
1594,0.14183
1594.9,0.14144
1595.9,0.14155
1596.8,0.14237
1597.8,0.14351
1598.8,0.14496
1599.7,0.14714
1600.7,0.1503
1601.7,0.15427
1602.6,0.1588
1603.6,0.16405
1604.6,0.17002
1605.5,0.17638
1606.5,0.18347
1607.5,0.19105
1608.4,0.19872
1609.4,0.20613
1610.3,0.21314
1611.3,0.2196
1612.3,0.22541
1613.2,0.2306
1614.2,0.23511
1615.2,0.23878
1616.1,0.24195
1617.1,0.24471
1618.1,0.24718
1619,0.24947
1620,0.25178
1621,0.2546
1621.9,0.25777
1622.9,0.26146
1623.8,0.26618
1624.8,0.27186
1625.8,0.27845
1626.7,0.2862
1627.7,0.29524
1628.7,0.30544
1629.6,0.3163
1630.6,0.32812
1631.6,0.34111
1632.5,0.35533
1633.5,0.37062
1634.5,0.38622
1635.4,0.4025
1636.4,0.41945
1637.3,0.43632
1638.3,0.45295
1639.3,0.46963
1640.2,0.48573
1641.2,0.50062
1642.2,0.51436
1643.1,0.5268
1644.1,0.5373
1645.1,0.54607
1646,0.55303
1647,0.55774
1648,0.56071
1648.9,0.56191
1649.9,0.56029
1650.8,0.55679
1651.8,0.55234
1652.8,0.54641
1653.7,0.539
1654.7,0.53027
1655.7,0.52036
1656.6,0.50998
1657.6,0.49946
1658.6,0.48825
1659.5,0.47629
1660.5,0.46451
1661.5,0.45309
1662.4,0.44166
1663.4,0.43048
1664.3,0.41995
1665.3,0.40992
1666.3,0.40017
1667.2,0.39096
1668.2,0.38208
1669.2,0.37343
1670.1,0.36537
1671.1,0.35778
1672.1,0.34986
1673,0.34174
1674,0.33359
1675,0.32509
1675.9,0.31592
1676.9,0.30591
1677.8,0.29498
1678.8,0.28315
1679.8,0.27032
1680.7,0.25676
1681.7,0.24265
1682.7,0.22813
1683.6,0.21345
1684.6,0.19897
1685.6,0.18468
1686.5,0.17086
1687.5,0.15783
1688.5,0.14567
1689.4,0.13447
1690.4,0.12433
1691.3,0.11522
1692.3,0.10704
1693.3,0.099998
1694.2,0.093824
1695.2,0.088386
1696.2,0.08377
1697.1,0.079992
1698.1,0.076767
1699.1,0.074126
1700,0.072129
1701,0.070571
1702,0.069388
1702.9,0.068466
1703.9,0.067762
1704.8,0.067437
1705.8,0.067342
1706.8,0.067251
1707.7,0.067217
1708.7,0.067496
1709.7,0.067957
1710.6,0.068278
1711.6,0.068624
1712.6,0.069251
1713.5,0.069689
1714.5,0.070143
1715.5,0.070863
1716.4,0.071516
1717.4,0.071998
1718.3,0.072512
1719.3,0.073043
1720.3,0.073428
1721.2,0.073728
1722.2,0.07402
1723.2,0.074215
1724.1,0.074229
1725.1,0.074273
1726.1,0.074319
1727,0.074139
1728,0.073732
1729,0.073195
1729.9,0.072562
1730.9,0.071867
1731.8,0.070938
1732.8,0.069622
1733.8,0.068285
1734.7,0.066873
1735.7,0.065256
1736.7,0.063342
1737.6,0.061277
1738.6,0.059136
1739.6,0.056802
1740.5,0.054309
1741.5,0.051818
1742.5,0.049236
1743.4,0.046537
1744.4,0.043894
1745.3,0.041315
1746.3,0.038724
1747.3,0.036226
1748.2,0.033692
1749.2,0.031245
1750.2,0.028832
1751.1,0.026625
1752.1,0.024585
1753.1,0.022596
1754,0.020648
1755,0.0188
1756,0.017154
1756.9,0.015632
1757.9,0.01415
1758.8,0.012798
1759.8,0.011595
1760.8,0.010603
1761.7,0.0095841
1762.7,0.0085733
1763.7,0.007733
1764.6,0.0069844
1765.6,0.0062613
1766.6,0.0055903
1767.5,0.0049296
1768.5,0.0043686
1769.5,0.0038527
1770.4,0.0034301
1771.4,0.0030405
1772.3,0.0026314
1773.3,0.0022974
1774.3,0.0019291
1775.2,0.0016261
1776.2,0.0014205
1777.2,0.0011818
1778.1,0.00096875
1779.1,0.00075297
1780.1,0.00058238
1781,0.00047607
1782,0.00034184
1783,0.00026192
1783.9,0.00022992
1784.9,0.00016006
1785.8,0.0001135
1786.8,-1.2387e-05
1787.8,-9.3699e-06
1788.7,3.7008e-05
1789.7,-2.7749e-06
1790.7,4.2371e-05
1791.6,0.00011956
1792.6,0.00016651
1793.6,0.00023173
1794.5,0.00025331
1795.5,0.00025218
1796.5,0.00027677
1797.4,0.0003661
1798.4,0.00051794
1799.3,0.00069599
1800.3,0.0007811
1801.3,0.00087159
1802.2,0.0010207
1803.2,0.0011191
1804.2,0.0012657
1805.1,0.0014799
1806.1,0.0016683
1807.1,0.0018405
1808,0.0019932
1809,0.0020949
1810,0.0022285
1810.9,0.0024436
1811.9,0.0025898
1812.8,0.0027408
1813.8,0.0029431
1814.8,0.003191
1815.7,0.0034254
1816.7,0.0036321
1817.7,0.0037698
1818.6,0.0039096
1819.6,0.0040852
1820.6,0.0043333
1821.5,0.0045306
1822.5,0.0046896
1823.5,0.0049183
1824.4,0.0051476
1825.4,0.0053679
1826.3,0.0054999
1827.3,0.0057084
1828.3,0.0059735
1829.2,0.0061176
1830.2,0.006323
1831.2,0.0065885
1832.1,0.0067666
